# Wavenumber, Intensity, Intensity Filtered at 125.00 cm width 35.00 order 2
1.199526000000000067e+03,7.947100000000000364e+02,7.321440962048869778e+02
1.200490000000000009e+03,7.946000000000000227e+02,7.336222958611321019e+02
1.201454999999999927e+03,7.940754167000000052e+02,7.348415706765271125e+02
1.202419000000000096e+03,7.917541667000000416e+02,7.344176518706793786e+02
1.203383000000000038e+03,7.870012500000000273e+02,7.317170259607156595e+02
1.204346999999999980e+03,7.803304167000000007e+02,7.272504654370217168e+02
1.205311999999999898e+03,7.731120832999999948e+02,7.223816803675797473e+02
1.206276000000000067e+03,7.665791666999999734e+02,7.183259120638460899e+02
1.207240000000000009e+03,7.611137499999999818e+02,7.154556860966517888e+02
1.208203999999999951e+03,7.560087499999999636e+02,7.130578368547882064e+02
1.209169000000000096e+03,7.497937500000000455e+02,7.096623294540188454e+02
1.210133000000000038e+03,7.410104166999999507e+02,7.038135285815847055e+02
1.211096999999999980e+03,7.290395833000000039e+02,6.948932102710263052e+02
1.212060999999999922e+03,7.144070832999999539e+02,6.834157799098219357e+02
1.213026000000000067e+03,6.983483333000000357e+02,6.705991797795447837e+02
1.213990000000000009e+03,6.820466666999999461e+02,6.576041447592117493e+02
1.214953999999999951e+03,6.661029167000000371e+02,6.450200270812485996e+02
1.215917999999999893e+03,6.504654166999999916e+02,6.327907263792229742e+02
1.216883000000000038e+03,6.347179167000000461e+02,6.205002285420051749e+02
1.217846999999999980e+03,6.184862500000000409e+02,6.077672686087765896e+02
1.218810999999999922e+03,6.017200000000000273e+02,5.945353508757325471e+02
1.219775000000000091e+03,5.847220833000000084e+02,5.810939151249814358e+02
1.220740000000000009e+03,5.679400000000000546e+02,5.678763575380137354e+02
1.221703999999999951e+03,5.517104166999999961e+02,5.551994400684295670e+02
1.222667999999999893e+03,5.361145833000000493e+02,5.431365039080438919e+02
1.223632000000000062e+03,5.210054166999999552e+02,5.315355951608383975e+02
1.224596999999999980e+03,5.061591667000000143e+02,5.201702542697129275e+02
1.225560999999999922e+03,4.914487500000000182e+02,5.089027897561341547e+02
1.226525000000000091e+03,4.769412500000000250e+02,4.977920916156135718e+02
1.227489000000000033e+03,4.628666666999999961e+02,4.870557936909406180e+02
1.228453999999999951e+03,4.494925000000000068e+02,4.769495887646830852e+02
1.229417999999999893e+03,4.369904167000000257e+02,4.676280920474064260e+02
1.230382000000000062e+03,4.253666666999999961e+02,4.590911597039730054e+02
1.231346000000000004e+03,4.144787499999999909e+02,4.511921453246922056e+02
1.232310999999999922e+03,4.041229582999999934e+02,4.437248835664718740e+02
1.233275000000000091e+03,3.941340417000000116e+02,4.365155171813271409e+02
1.234239000000000033e+03,3.844507917000000248e+02,4.294978135257300096e+02
1.235202999999999975e+03,3.751189166999999998e+02,4.227089954279663289e+02
1.236167999999999893e+03,3.662266250000000127e+02,4.162292628878769847e+02
1.237132000000000062e+03,3.578406666999999857e+02,4.101139567298011457e+02
1.238096000000000004e+03,3.499590832999999748e+02,4.043568931245687850e+02
1.239059999999999945e+03,3.425146250000000236e+02,3.988885790423270237e+02
1.240025000000000091e+03,3.354155832999999802e+02,3.936159951595393522e+02
1.240989000000000033e+03,3.285979583000000162e+02,3.884708874071258151e+02
1.241952999999999975e+03,3.220546666999999843e+02,3.834431671467887099e+02
1.242916999999999916e+03,3.158269999999999982e+02,3.785699126451184497e+02
1.243882000000000062e+03,3.099651250000000005e+02,3.738965394124127215e+02
1.244846000000000004e+03,3.044837082999999893e+02,3.694334229144578217e+02
1.245809999999999945e+03,2.993387500000000045e+02,3.651360186629606233e+02
1.246773999999999887e+03,2.944403750000000173e+02,3.609164042802131007e+02
1.247739000000000033e+03,2.896911249999999995e+02,3.566787628750876138e+02
1.248702999999999975e+03,2.850308332999999834e+02,3.523654072110106767e+02
1.249666999999999916e+03,2.804609166999999843e+02,3.479775690873229337e+02
1.250631000000000085e+03,2.760359166999999729e+02,3.435694160955632697e+02
1.251596000000000004e+03,2.718277499999999804e+02,3.392106786204084301e+02
1.252559999999999945e+03,2.678840000000000146e+02,3.349510369819687980e+02
1.253523999999999887e+03,2.642026667000000089e+02,3.307900476135152985e+02
1.254488000000000056e+03,2.607349583000000166e+02,3.266841083097822889e+02
1.255452999999999975e+03,2.574111250000000268e+02,3.225674000216476429e+02
1.256416999999999916e+03,2.541746249999999918e+02,3.183918568865939278e+02
1.257381000000000085e+03,2.510042917000000102e+02,3.141390748598395248e+02
1.258345000000000027e+03,2.479150832999999921e+02,3.098276687897908346e+02
1.259309999999999945e+03,2.449370833000000118e+02,3.054884718047340471e+02
1.260273999999999887e+03,2.420891666999999927e+02,3.011484271129998547e+02
1.261238000000000056e+03,2.393619166999999948e+02,2.968017378751164301e+02
1.262201999999999998e+03,2.367216249999999889e+02,2.924224717553041160e+02
1.263166999999999916e+03,2.341299582999999984e+02,2.879773407563316141e+02
1.264131000000000085e+03,2.315662499999999966e+02,2.834580461722816835e+02
1.265095000000000027e+03,2.290374999999999943e+02,2.788751635817177430e+02
1.266058999999999969e+03,2.265735416999999927e+02,2.742635755764190435e+02
1.267023999999999887e+03,2.241998332999999946e+02,2.696516364758879263e+02
1.267988000000000056e+03,2.219260832999999877e+02,2.650611536542616022e+02
1.268951999999999998e+03,2.197377917000000025e+02,2.604825595866374215e+02
1.269915999999999940e+03,2.176060416999999916e+02,2.558961347409789937e+02
1.270881000000000085e+03,2.155055000000000121e+02,2.512819637179078711e+02
1.271845000000000027e+03,2.134307916999999861e+02,2.466486987074080446e+02
1.272808999999999969e+03,2.113988333000000068e+02,2.420164042438366607e+02
1.273772999999999911e+03,2.094373750000000030e+02,2.374189267680396540e+02
1.274738000000000056e+03,2.075657083000000114e+02,2.328782794451830966e+02
1.275701999999999998e+03,2.057807917000000089e+02,2.284051375817231531e+02
1.276665999999999940e+03,2.040568749999999909e+02,2.239789665390127027e+02
1.277630000000000109e+03,2.023602500000000077e+02,2.195754484436760379e+02
1.278595000000000027e+03,2.006691250000000082e+02,2.151778413699754537e+02
1.279558999999999969e+03,1.989881666999999936e+02,2.108042915339871399e+02
1.280522999999999911e+03,1.973467917000000114e+02,2.064860323979447685e+02
1.281487000000000080e+03,1.957827499999999930e+02,2.022654645076009672e+02
1.282451999999999998e+03,1.943182500000000061e+02,1.981665300494259725e+02
1.283415999999999940e+03,1.929449999999999932e+02,1.941933615268559095e+02
1.284380000000000109e+03,1.916249167000000000e+02,1.903124257112998521e+02
1.285344000000000051e+03,1.903081249999999898e+02,1.864825436133087635e+02
1.286308999999999969e+03,1.889584999999999866e+02,1.826720595712867805e+02
1.287272999999999911e+03,1.875726249999999879e+02,1.788891679595509174e+02
1.288237000000000080e+03,1.861816666999999939e+02,1.751652448223514114e+02
1.289201000000000022e+03,1.848343749999999943e+02,1.715513989318282597e+02
1.290165999999999940e+03,1.835709583000000009e+02,1.680873613341928206e+02
1.291130000000000109e+03,1.824017082999999957e+02,1.647923535936247674e+02
1.292094000000000051e+03,1.813032082999999943e+02,1.616455209400340323e+02
1.293057999999999993e+03,1.802320416999999964e+02,1.586098517791189693e+02
1.294022999999999911e+03,1.791480832999999961e+02,1.556483851170084449e+02
1.294987000000000080e+03,1.780345000000000084e+02,1.527525967326930356e+02
1.295951000000000022e+03,1.769032917000000111e+02,1.499336955834583875e+02
1.296914999999999964e+03,1.757855417000000102e+02,1.472228036946965801e+02
1.297880000000000109e+03,1.747080832999999984e+02,1.446453341763354956e+02
1.298844000000000051e+03,1.736799167000000068e+02,1.422151966358528057e+02
1.299807999999999993e+03,1.726875416999999970e+02,1.399194837462126202e+02
1.300771999999999935e+03,1.717055416999999977e+02,1.377362478480321215e+02
1.301737000000000080e+03,1.707144166999999868e+02,1.356469253984686816e+02
1.302701000000000022e+03,1.697142082999999957e+02,1.336552579594832082e+02
1.303664999999999964e+03,1.687257500000000050e+02,1.317792412729355078e+02
1.304628999999999905e+03,1.677782500000000141e+02,1.300460690903349246e+02
1.305594000000000051e+03,1.668908332999999971e+02,1.284719838874584923e+02
1.306557999999999993e+03,1.660600416999999993e+02,1.270549469852065982e+02
1.307521999999999935e+03,1.652609582999999986e+02,1.257697363689209169e+02
1.308486000000000104e+03,1.644610833000000127e+02,1.245853379107951042e+02
1.309451000000000022e+03,1.636394583000000011e+02,1.234804003314779237e+02
1.310414999999999964e+03,1.627992500000000007e+02,1.224575896236675447e+02
1.311378999999999905e+03,1.619664166999999964e+02,1.215384191735558659e+02
1.312343000000000075e+03,1.611746249999999918e+02,1.207520648498967546e+02
1.313307000000000016e+03,1.604451249999999902e+02,1.201158407873447658e+02
1.314271999999999935e+03,1.597730832999999961e+02,1.196224858337573806e+02
1.315236000000000104e+03,1.591285833000000025e+02,1.192414695848145101e+02
1.316200000000000045e+03,1.584720417000000054e+02,1.189330985799323344e+02
1.317164999999999964e+03,1.577749167000000057e+02,1.186681774105629330e+02
1.318128999999999905e+03,1.570352082999999936e+02,1.184414321055953536e+02
1.319093000000000075e+03,1.562777916999999945e+02,1.182726840539037028e+02
1.320057000000000016e+03,1.555401249999999891e+02,1.181933494379561722e+02
1.321020999999999958e+03,1.548512916999999902e+02,1.182271334643843375e+02
1.321986000000000104e+03,1.542171667000000070e+02,1.183767096069035176e+02
1.322950000000000045e+03,1.536192082999999968e+02,1.186203527039870949e+02
1.323913999999999987e+03,1.530266249999999957e+02,1.189266051764030152e+02
1.324878999999999905e+03,1.524140417000000127e+02,1.192688554882360279e+02
1.325843000000000075e+03,1.517738333000000068e+02,1.196344193369193079e+02
1.326807000000000016e+03,1.511169166999999902e+02,1.200296968121979404e+02
1.327770999999999958e+03,1.504630832999999939e+02,1.204684848996691500e+02
1.328736000000000104e+03,1.498242917000000034e+02,1.209587075910828275e+02
1.329700000000000045e+03,1.491974999999999909e+02,1.214918272316129020e+02
1.330663999999999987e+03,1.485659167000000025e+02,1.220498314443935755e+02
1.331627999999999929e+03,1.479114999999999895e+02,1.226131338127097621e+02
1.332593000000000075e+03,1.472289167000000134e+02,1.231746352513524556e+02
1.333557000000000016e+03,1.465328332999999930e+02,1.237426118339609218e+02
1.334520999999999958e+03,1.458524582999999950e+02,1.243413253824354143e+02
1.335484999999999900e+03,1.452168332999999905e+02,1.249938716035424022e+02
1.336449000000000069e+03,1.446382499999999993e+02,1.257078159551440990e+02
1.337413999999999987e+03,1.441037499999999909e+02,1.264684360917093215e+02
1.338377999999999929e+03,1.435796666999999900e+02,1.272391581002923999e+02
1.339342000000000098e+03,1.430295000000000130e+02,1.279845081450354485e+02
1.340307000000000016e+03,1.424344582999999886e+02,1.286852351004081072e+02
1.341270999999999958e+03,1.418040416999999991e+02,1.293448394938777710e+02
1.342234999999999900e+03,1.411696666999999934e+02,1.299897360271996547e+02
1.343199000000000069e+03,1.405648750000000007e+02,1.306479834683775323e+02
1.344163999999999987e+03,1.400068333000000109e+02,1.313336398489250882e+02
1.345127999999999929e+03,1.394877083000000084e+02,1.320352495022654580e+02
1.346092000000000098e+03,1.389814167000000111e+02,1.327278061161269136e+02
1.347056000000000040e+03,1.384597917000000109e+02,1.333837742411087390e+02
1.348020999999999958e+03,1.379097500000000025e+02,1.339901321640734579e+02
1.348984999999999900e+03,1.373418749999999875e+02,1.345528310506270770e+02
1.349949000000000069e+03,1.367848749999999995e+02,1.350969162637966292e+02
1.350913000000000011e+03,1.362690833000000055e+02,1.356482308281143503e+02
1.351877999999999929e+03,1.358082499999999868e+02,1.362184913588356210e+02
1.352842000000000098e+03,1.353922082999999930e+02,1.367953455213389589e+02
1.353806000000000040e+03,1.349930832999999950e+02,1.373531620982832635e+02
1.354769999999999982e+03,1.345820832999999936e+02,1.378649637360485087e+02
1.355733999999999924e+03,1.341469582999999943e+02,1.383187993750095757e+02
1.356699000000000069e+03,1.336992083000000093e+02,1.387247217264911399e+02
1.357663000000000011e+03,1.332669999999999959e+02,1.391061186254203506e+02
1.358626999999999953e+03,1.328783333000000084e+02,1.394880278271978113e+02
1.359592000000000098e+03,1.325431667000000004e+02,1.398792922060488877e+02
1.360556000000000040e+03,1.322462083000000064e+02,1.402642316257175708e+02
1.361519999999999982e+03,1.319539167000000077e+02,1.406128988603783796e+02
1.362483999999999924e+03,1.316336666999999920e+02,1.408962060061640216e+02
1.363448000000000093e+03,1.312745416999999861e+02,1.411048559683531494e+02
1.364413000000000011e+03,1.308959166999999866e+02,1.412567494576456113e+02
1.365376999999999953e+03,1.305362082999999984e+02,1.413859595490130516e+02
1.366340999999999894e+03,1.302297916999999927e+02,1.415240746805190213e+02
1.367306000000000040e+03,1.299870416999999918e+02,1.416814112510401742e+02
1.368269999999999982e+03,1.297897499999999980e+02,1.418414211944684666e+02
1.369233999999999924e+03,1.296011666999999932e+02,1.419717556345366347e+02
1.370198000000000093e+03,1.293857500000000016e+02,1.420411033157078577e+02
1.371162000000000035e+03,1.291285833000000025e+02,1.420371914228894923e+02
1.372126999999999953e+03,1.288450832999999989e+02,1.419752385824527892e+02
1.373090999999999894e+03,1.285745000000000005e+02,1.418915312717020925e+02
1.374055000000000064e+03,1.283581250000000011e+02,1.418241059170748599e+02
1.375019999999999982e+03,1.282150833000000034e+02,1.417913360886327041e+02
1.375983999999999924e+03,1.281317917000000079e+02,1.417820709044485739e+02
1.376948000000000093e+03,1.280700416999999902e+02,1.417633337326424225e+02
1.377912000000000035e+03,1.279890000000000043e+02,1.416995996697185944e+02
1.378875999999999976e+03,1.278672916999999956e+02,1.415725625902044555e+02
1.379840999999999894e+03,1.277123332999999974e+02,1.413893972475262046e+02
1.380805000000000064e+03,1.275524166999999949e+02,1.411765698857187772e+02
1.381769000000000005e+03,1.274176250000000010e+02,1.409619069624421570e+02
1.382733999999999924e+03,1.273208750000000009e+02,1.407580592851556958e+02
1.383698000000000093e+03,1.272498750000000030e+02,1.405556471482909728e+02
1.384662000000000035e+03,1.271737499999999983e+02,1.403285294544284341e+02
1.385625999999999976e+03,1.270617083000000065e+02,1.400513599604764750e+02
1.386589999999999918e+03,1.269043333000000047e+02,1.397182228953362539e+02
1.387555000000000064e+03,1.267242083000000008e+02,1.393509622238306918e+02
1.388519000000000005e+03,1.265659583000000055e+02,1.389914789425320976e+02
1.389482999999999947e+03,1.264708332999999953e+02,1.386773843576622482e+02
1.390448000000000093e+03,1.264519999999999982e+02,1.384216518923295496e+02
1.391412000000000035e+03,1.264874999999999972e+02,1.382060561890832275e+02
1.392375999999999976e+03,1.265306250000000006e+02,1.379890967704972411e+02
1.393339999999999918e+03,1.265313333000000000e+02,1.377266709296830243e+02
1.394304000000000087e+03,1.264602500000000020e+02,1.373938627011398808e+02
1.395269000000000005e+03,1.263247917000000058e+02,1.369986031356795877e+02
1.396232999999999947e+03,1.261671249999999986e+02,1.365803677023403964e+02
1.397196999999999889e+03,1.260397916999999950e+02,1.361861534959532207e+02
1.398161000000000058e+03,1.259732917000000043e+02,1.358442548864811386e+02
1.399125999999999976e+03,1.259590000000000032e+02,1.355483599851887107e+02
1.400089999999999918e+03,1.259571667000000019e+02,1.352652871285980325e+02
1.401054000000000087e+03,1.259224583000000024e+02,1.349553630799942141e+02
1.402018000000000029e+03,1.258289999999999935e+02,1.345963487566896504e+02
1.402982999999999947e+03,1.256836667000000034e+02,1.341945385738973187e+02
1.403946999999999889e+03,1.255204166999999984e+02,1.337814779646670615e+02
1.404911000000000058e+03,1.253799166999999954e+02,1.333931757134566283e+02
1.405875000000000000e+03,1.252843333000000001e+02,1.330498925127905068e+02
1.406839999999999918e+03,1.252240833000000038e+02,1.327435946879375592e+02
1.407804000000000087e+03,1.251638750000000044e+02,1.324444781980438961e+02
1.408768000000000029e+03,1.250643749999999983e+02,1.321183442627405782e+02
1.409731999999999971e+03,1.249062916999999970e+02,1.317489644508449658e+02
1.410696999999999889e+03,1.247026249999999976e+02,1.313480412734812717e+02
1.411661000000000058e+03,1.244917499999999961e+02,1.309505622302385746e+02
1.412625000000000000e+03,1.243152500000000060e+02,1.305930539380006792e+02
1.413588999999999942e+03,1.241935416999999973e+02,1.302937155108112393e+02
1.414554000000000087e+03,1.241135833000000019e+02,1.300403108135602679e+02
1.415518000000000029e+03,1.240331249999999983e+02,1.297950773595808585e+02
1.416481999999999971e+03,1.238999582999999944e+02,1.295113811048961736e+02
1.417446999999999889e+03,1.236793749999999932e+02,1.291591004834849912e+02
1.418411000000000058e+03,1.233776667000000060e+02,1.287456754130565457e+02
1.419375000000000000e+03,1.230443750000000023e+02,1.283143057593688354e+02
1.420338999999999942e+03,1.227436667000000057e+02,1.279203835261226914e+02
1.421303000000000111e+03,1.225125416999999999e+02,1.275963643312099265e+02
1.422268000000000029e+03,1.223399167000000034e+02,1.273333968366206506e+02
1.423231999999999971e+03,1.221797083000000015e+02,1.270919045445384086e+02
1.424195999999999913e+03,1.219816667000000052e+02,1.268271006886345731e+02
1.425160000000000082e+03,1.217198750000000018e+02,1.265154035273669280e+02
1.426125000000000000e+03,1.214049167000000011e+02,1.261654473002895145e+02
1.427088999999999942e+03,1.210779167000000029e+02,1.258135407168437609e+02
1.428053000000000111e+03,1.207872916999999973e+02,1.255010885978127817e+02
1.429017000000000053e+03,1.205597082999999969e+02,1.252506088691882269e+02
1.429981999999999971e+03,1.203827500000000015e+02,1.250502069785336943e+02
1.430945999999999913e+03,1.202110416999999956e+02,1.248592978400068745e+02
1.431910000000000082e+03,1.199905832999999973e+02,1.246292960444964706e+02
1.432875000000000000e+03,1.196874167000000000e+02,1.243294138278804297e+02
1.433838999999999942e+03,1.193065832999999998e+02,1.239644464276351954e+02
1.434803000000000111e+03,1.188918333000000018e+02,1.235724631118629020e+02
1.435767000000000053e+03,1.185039167000000049e+02,1.232059927898449700e+02
1.436730999999999995e+03,1.181857083000000017e+02,1.229012842498860323e+02
1.437695999999999913e+03,1.179350833000000023e+02,1.226559966729670350e+02
1.438660000000000082e+03,1.177087499999999949e+02,1.224330860048469987e+02
1.439624000000000024e+03,1.174536666999999994e+02,1.221861552215622737e+02
1.440588999999999942e+03,1.171418333000000018e+02,1.218891492731179511e+02
1.441553000000000111e+03,1.167839582999999948e+02,1.215500933086757129e+02
1.442517000000000053e+03,1.164188749999999999e+02,1.212015254304405119e+02
1.443480999999999995e+03,1.160900000000000034e+02,1.208808981824450086e+02
1.444444999999999936e+03,1.158218332999999944e+02,1.206088686510890255e+02
1.445410000000000082e+03,1.156063333000000029e+02,1.203769161415339539e+02
1.446374000000000024e+03,1.154057499999999976e+02,1.201512206308285045e+02
1.447337999999999965e+03,1.151731249999999989e+02,1.198903954119794690e+02
1.448301999999999907e+03,1.148821250000000020e+02,1.195713170850187339e+02
1.449267000000000053e+03,1.145446249999999964e+02,1.192028181630351611e+02
1.450230999999999995e+03,1.142022500000000065e+02,1.188202523592902224e+02
1.451194999999999936e+03,1.138992499999999950e+02,1.184607622531892162e+02
1.452159000000000106e+03,1.136559582999999947e+02,1.181415571832874178e+02
1.453124000000000024e+03,1.134579166999999984e+02,1.178484442667378005e+02
1.454087999999999965e+03,1.132618750000000034e+02,1.175423177163547308e+02
